PSTAR: Stopping Powers and Range Tables for Protons

AIR (dry, near sea level)                                               

Kinetic   Electron. Nuclear   Total     
Energy    Stp. Pow. Stp. Pow. Stp. Pow. 
MeV       MeV cm2/g MeV cm2/g MeV cm2/g 

1.000E-03 1.197E+02 2.163E+01 1.414E+02 
1.500E-03 1.467E+02 1.840E+01 1.651E+02 
2.000E-03 1.693E+02 1.614E+01 1.855E+02 
2.500E-03 1.893E+02 1.446E+01 2.038E+02 
3.000E-03 2.074E+02 1.314E+01 2.206E+02 
4.000E-03 2.395E+02 1.120E+01 2.507E+02 
5.000E-03 2.678E+02 9.825E+00 2.776E+02 
6.000E-03 2.933E+02 8.786E+00 3.021E+02 
7.000E-03 3.168E+02 7.970E+00 3.248E+02 
8.000E-03 3.387E+02 7.310E+00 3.460E+02 
9.000E-03 3.592E+02 6.762E+00 3.660E+02 
1.000E-02 3.787E+02 6.300E+00 3.850E+02 
1.250E-02 4.170E+02 5.404E+00 4.224E+02 
1.500E-02 4.504E+02 4.751E+00 4.552E+02 
1.750E-02 4.801E+02 4.253E+00 4.843E+02 
2.000E-02 5.067E+02 3.858E+00 5.106E+02 
2.250E-02 5.307E+02 3.536E+00 5.343E+02 
2.500E-02 5.526E+02 3.269E+00 5.558E+02 
2.750E-02 5.724E+02 3.042E+00 5.755E+02 
3.000E-02 5.905E+02 2.848E+00 5.934E+02 
3.500E-02 6.221E+02 2.531E+00 6.246E+02 
4.000E-02 6.483E+02 2.282E+00 6.506E+02 
4.500E-02 6.700E+02 2.082E+00 6.721E+02 
5.000E-02 6.877E+02 1.917E+00 6.897E+02 
5.500E-02 7.020E+02 1.777E+00 7.038E+02 
6.000E-02 7.132E+02 1.659E+00 7.149E+02 
6.500E-02 7.217E+02 1.556E+00 7.233E+02 
7.000E-02 7.278E+02 1.466E+00 7.293E+02 
7.500E-02 7.319E+02 1.387E+00 7.333E+02 
8.000E-02 7.341E+02 1.316E+00 7.355E+02 
8.500E-02 7.348E+02 1.253E+00 7.360E+02 
9.000E-02 7.340E+02 1.196E+00 7.352E+02 
9.500E-02 7.320E+02 1.145E+00 7.332E+02 
1.000E-01 7.290E+02 1.098E+00 7.301E+02 
1.250E-01 7.029E+02 9.142E-01 7.038E+02 
1.500E-01 6.672E+02 7.861E-01 6.680E+02 
1.750E-01 6.291E+02 6.914E-01 6.298E+02 
2.000E-01 5.922E+02 6.183E-01 5.928E+02 
2.250E-01 5.583E+02 5.600E-01 5.589E+02 
2.500E-01 5.278E+02 5.124E-01 5.284E+02 
2.750E-01 5.006E+02 4.727E-01 5.011E+02 
3.000E-01 4.763E+02 4.390E-01 4.767E+02 
3.500E-01 4.349E+02 3.850E-01 4.353E+02 
4.000E-01 4.012E+02 3.435E-01 4.015E+02 
4.500E-01 3.733E+02 3.105E-01 3.736E+02 
5.000E-01 3.498E+02 2.836E-01 3.501E+02 
5.500E-01 3.297E+02 2.612E-01 3.300E+02 
6.000E-01 3.121E+02 2.423E-01 3.123E+02 
6.500E-01 2.964E+02 2.261E-01 2.967E+02 
7.000E-01 2.824E+02 2.119E-01 2.826E+02 
7.500E-01 2.699E+02 1.995E-01 2.701E+02 
8.000E-01 2.587E+02 1.885E-01 2.589E+02 
8.500E-01 2.485E+02 1.787E-01 2.486E+02 
9.000E-01 2.391E+02 1.699E-01 2.393E+02 
9.500E-01 2.306E+02 1.620E-01 2.308E+02 
1.000E+00 2.227E+02 1.548E-01 2.229E+02 
1.250E+00 1.911E+02 1.270E-01 1.912E+02 
1.500E+00 1.682E+02 1.080E-01 1.683E+02 
1.750E+00 1.508E+02 9.404E-02 1.509E+02 
2.000E+00 1.370E+02 8.340E-02 1.371E+02 
2.250E+00 1.258E+02 7.500E-02 1.258E+02 
2.500E+00 1.164E+02 6.818E-02 1.165E+02 
2.750E+00 1.085E+02 6.254E-02 1.086E+02 
3.000E+00 1.017E+02 5.778E-02 1.018E+02 
3.500E+00 9.063E+01 5.021E-02 9.068E+01 
4.000E+00 8.192E+01 4.444E-02 8.197E+01 
4.500E+00 7.488E+01 3.989E-02 7.492E+01 
5.000E+00 6.905E+01 3.621E-02 6.909E+01 
5.500E+00 6.414E+01 3.317E-02 6.417E+01 
6.000E+00 5.994E+01 3.061E-02 5.997E+01 
6.500E+00 5.630E+01 2.843E-02 5.633E+01 
7.000E+00 5.312E+01 2.654E-02 5.315E+01 
7.500E+00 5.031E+01 2.490E-02 5.033E+01 
8.000E+00 4.781E+01 2.345E-02 4.783E+01 
8.500E+00 4.557E+01 2.217E-02 4.559E+01 
9.000E+00 4.355E+01 2.102E-02 4.357E+01 
9.500E+00 4.171E+01 1.999E-02 4.173E+01 
1.000E+01 4.004E+01 1.905E-02 4.006E+01 
1.250E+01 3.349E+01 1.547E-02 3.351E+01 
1.500E+01 2.892E+01 1.304E-02 2.894E+01 
1.750E+01 2.554E+01 1.128E-02 2.555E+01 
2.000E+01 2.293E+01 9.953E-03 2.294E+01 
2.500E+01 1.914E+01 8.066E-03 1.915E+01 
2.750E+01 1.773E+01 7.372E-03 1.773E+01 
3.000E+01 1.652E+01 6.790E-03 1.653E+01 
3.500E+01 1.460E+01 5.870E-03 1.460E+01 
4.000E+01 1.312E+01 5.173E-03 1.312E+01 
4.500E+01 1.194E+01 4.627E-03 1.194E+01 
5.000E+01 1.098E+01 4.187E-03 1.099E+01 
5.500E+01 1.019E+01 3.826E-03 1.019E+01 
6.000E+01 9.514E+00 3.523E-03 9.517E+00 
6.500E+01 8.938E+00 3.265E-03 8.942E+00 
7.000E+01 8.440E+00 3.043E-03 8.443E+00 
7.500E+01 8.003E+00 2.850E-03 8.006E+00 
8.000E+01 7.618E+00 2.681E-03 7.620E+00 
8.500E+01 7.275E+00 2.531E-03 7.277E+00 
9.000E+01 6.968E+00 2.397E-03 6.970E+00 
9.500E+01 6.691E+00 2.277E-03 6.693E+00 
1.000E+02 6.441E+00 2.169E-03 6.443E+00 
1.250E+02 5.474E+00 1.754E-03 5.475E+00 
1.500E+02 4.815E+00 1.475E-03 4.816E+00 
1.750E+02 4.337E+00 1.274E-03 4.338E+00 
2.000E+02 3.975E+00 1.122E-03 3.976E+00 
2.250E+02 3.690E+00 1.003E-03 3.691E+00 
2.500E+02 3.462E+00 9.075E-04 3.462E+00 
2.750E+02 3.274E+00 8.289E-04 3.275E+00 
3.000E+02 3.117E+00 7.631E-04 3.118E+00 
3.500E+02 2.870E+00 6.591E-04 2.871E+00 
4.000E+02 2.686E+00 5.806E-04 2.687E+00 
4.500E+02 2.544E+00 5.191E-04 2.544E+00 
5.000E+02 2.431E+00 4.697E-04 2.431E+00 
5.500E+02 2.340E+00 4.291E-04 2.340E+00 
6.000E+02 2.265E+00 3.951E-04 2.266E+00 
6.500E+02 2.203E+00 3.663E-04 2.203E+00 
7.000E+02 2.151E+00 3.414E-04 2.151E+00 
7.500E+02 2.107E+00 3.198E-04 2.107E+00 
8.000E+02 2.069E+00 3.009E-04 2.069E+00 
8.500E+02 2.036E+00 2.841E-04 2.037E+00 
9.000E+02 2.008E+00 2.691E-04 2.008E+00 
9.500E+02 1.984E+00 2.557E-04 1.984E+00 
1.000E+03 1.962E+00 2.436E-04 1.963E+00 
1.500E+03 1.850E+00 1.661E-04 1.850E+00 
2.000E+03 1.820E+00 1.267E-04 1.820E+00 
2.500E+03 1.818E+00 1.027E-04 1.818E+00 
3.000E+03 1.828E+00 8.655E-05 1.828E+00 
4.000E+03 1.861E+00 6.608E-05 1.861E+00 
5.000E+03 1.898E+00 5.362E-05 1.898E+00 
6.000E+03 1.933E+00 4.520E-05 1.934E+00 
7.000E+03 1.967E+00 3.913E-05 1.967E+00 
8.000E+03 1.998E+00 3.453E-05 1.998E+00 
9.000E+03 2.026E+00 3.093E-05 2.026E+00 
1.000E+04 2.052E+00 2.803E-05 2.052E+00 